Wavelength	 RAW_spectrum_average_lamp
350	70.98741302
351	72.6657341
352	75.11608276
353	77.89722137
354	80.88741379
355	82.63566284
356	83.99370575
357	85.4713295
358	88.4783226
359	90.63496475
360	92.3615387
361	93.7601387
362	95.66223755
363	97.3902092
364	98.9258728
365	102.0727264
366	103.5541672
367	104.5062943
368	108.0727272
369	110.2937057
370	111.8468521
371	112.9657349
372	115.807692
373	119.136364
374	122.7265732
375	124.055246
376	127.1580429
377	131.3370621
378	134.6937012
379	138.6923645
380	143.0993042
381	147.924472
382	152.990213
383	158.065036
384	163.1
385	169.2538452
386	175.2083923
387	181.3062927
388	189.2083893
389	196.0678345
390	202.9321686
391	210.9041977
392	219.4194412
393	228.1699326
394	237.1209808
395	246.8258728
396	257.3538406
397	268.5006927
398	279.3398621
399	291.0958038
400	303.3909088
401	316.0482574
402	328.8797272
403	342.2783173
404	356.4741272
405	370.6416718
406	385.1573395
407	400.0664307
408	415.7307709
409	431.1139862
410	446.1741211
411	460.649646
412	478.5237701
413	496.7433563
414	514.2258667
415	533.1034851
416	552.1272705
417	571.0545471
418	588.3272827
419	605.5208313
420	622.6230774
421	639.5461548
422	655.695813
423	671.5391663
424	687.2035156
425	705.2091064
426	721.7125854
427	736.4545288
428	750.0908936
429	763.8167969
430	777.5930176
431	791.3692261
432	804.0958252
433	816.0328491
434	827.0118896
435	838.2454529
436	848.9
437	858.8895081
438	868.679718
439	878.6867126
440	888.6272766
441	897.7181946
442	907.2342712
443	916.8384644
444	926.3489502
445	935.1125
446	943.7566528
447	952.3412537
448	960.3832275
449	969.3901978
450	978.719574
451	986.4818176
452	995.5377747
453	1004.701392
454	1013.093011
455	1023.269226
456	1033.342688
457	1042.997217
458	1052.858337
459	1064.179028
460	1076.483215
461	1088.37135
462	1099.655273
463	1111.94126
464	1127.255981
465	1141.307678
466	1155.695105
467	1170.8
468	1186.114685
469	1201.987415
470	1218.56665
471	1236.9
472	1254.637781
473	1272.932166
474	1293.421692
475	1314.557373
476	1336.016772
477	1357.765051
478	1380.678308
479	1403.846155
480	1427.320276
481	1451.655957
482	1478.018188
483	1505.386096
484	1533.025
485	1560.420972
486	1588.527271
487	1617.827991
488	1649.276941
489	1681.667847
490	1714.765735
491	1747.423059
492	1783.125867
493	1819.808386
494	1854.843372
495	1891.804199
496	1929.434729
497	1967.420825
498	2007.299976
499	2047.335632
500	2087.590234
501	2129.967822
502	2171.163647
503	2212.292285
504	2255.439111
505	2298.365063
506	2341.534253
507	2385.240552
508	2428.166479
509	2472.169434
510	2517.41958
511	2564.412598
512	2610.788818
513	2657.096509
514	2704.579004
515	2752.007739
516	2800.109766
517	2849.550342
518	2898.290918
519	2947.902075
520	2998.46853
521	3047.839185
522	3098.719482
523	3149.784595
524	3197.476855
525	3248.15874
526	3299.478979
527	3350.038403
528	3400.411206
529	3449.827979
530	3498.134912
531	3545.967163
532	3593.673389
533	3641.046191
534	3687.2
535	3733.476367
536	3779.263647
537	3823.809082
538	3868.050293
539	3910.861548
540	3951.910474
541	3992.959497
542	4032.953833
543	4072.058716
544	4110.450537
545	4146.52583
546	4181.98457
547	4218.138428
548	4250.851318
549	4283.157324
550	4315.674854
551	4339.538428
552	4363.23623
553	4386.945459
554	4411.14126
555	4435.483984
556	4460.38042
557	4486.604199
558	4513.474219
559	4540.753906
560	4568.446094
561	4599.633691
562	4627.258984
563	4651.053711
564	4667.907031
565	4684.237012
566	4699.202246
567	4710.810498
568	4721.501367
569	4731.772754
570	4741.702783
571	4748.141943
572	4752.878906
573	4756.109814
574	4758.207715
575	4759.970215
576	4761.39292
577	4762.232275
578	4764.749658
579	4767.014063
580	4768.132813
581	4768.134326
582	4768.777539
583	4770.123096
584	4771.661426
585	4774.018311
586	4776.476855
587	4777.735547
588	4780.413867
589	4783.64834
590	4787.214746
591	4790.073389
592	4794.549658
593	4800.702148
594	4805.737109
595	4811.565039
596	4817.746777
597	4823.481104
598	4832.015332
599	4840.292236
600	4846.446191
601	4856.479102
602	4867.751709
603	4879.874854
604	4889.245508
605	4901.004883
606	4914.291602
607	4927.578223
608	4944.851025
609	4962.736377
610	4979.100098
611	4997.019531
612	5013.555322
613	5028.297949
614	5044.895117
615	5058.590381
616	5069.462793
617	5076.106299
618	5079.431396
619	5080.018896
620	5077.081836
621	5069.338379
622	5060.630811
623	5051.549658
624	5036.514648
625	5023.102051
626	5010.5646
627	4996.328418
628	4980.879736
629	4966.325928
630	4955.346875
631	4936.997119
632	4917.141309
633	4897.001416
634	4882.607617
635	4875.986719
636	4876.227246
637	4881.821582
638	4891.674756
639	4907.025
640	4932.302783
641	4966.259473
642	5000.51123
643	5032.539355
644	5065.991602
645	5100.847607
646	5137.246191
647	5176.756641
648	5217.123096
649	5259.238574
650	5305.392236
651	5357.222998
652	5411.8354
653	5468.849365
654	5533.881836
655	5603.736426
656	5678.382568
657	5760.4104
658	5844.884619
659	5932.195068
660	6024.782471
661	6119.27207
662	6215.427197
663	6313.60918
664	6409.884668
665	6503.006201
666	6592.80835
667	6677.213916
668	6754.951123
669	6827.600732
670	6895.223145
671	6954.772754
672	7010.62583
673	7063.842676
674	7113.971338
675	7162.529395
676	7209.66499
677	7255.748926
678	7300.40625
679	7344.297168
680	7388.492969
681	7433.964355
682	7479.7
683	7525.154492
684	7573.441406
685	7621.648193
686	7669.642773
687	7723.209131
688	7775.367822
689	7826.979004
690	7880.195898
691	7932.71875
692	7985.622461
693	8039.888184
694	8091.446143
695	8144.900684
696	8201.034961
697	8252.783008
698	8306.099414
699	8359.934277
700	8410.773535
701	8460.846875
702	8508.644043
703	8551.790723
704	8595.607422
705	8638.83877
706	8681.2
707	8721.689551
708	8760.385254
709	8797.003516
710	8829.171289
711	8860.395703
712	8891.07832
713	8921.358008
714	8947.655273
715	8972.104102
716	8994.971387
717	9017.423047
718	9039.666602
719	9061.382422
720	9080.403125
721	9097.590723
722	9113.918164
723	9130.141992
724	9145.90127
725	9161.062305
726	9175.467773
727	9190.619629
728	9204.661523
729	9217.438574
730	9227.788184
731	9233.130566
732	9236.205469
733	9239.5625
734	9235.158984
735	9231.40625
736	9231.685938
737	9236.283789
738	9247.145313
739	9262.874121
740	9271.475488
741	9278.646289
742	9285.706836
743	9294.867773
744	9299.08916
745	9300.597266
746	9299.478223
747	9300.440625
748	9302.678125
749	9306.519629
750	9316.799219
751	9320.186719
752	9318.478223
753	9312.184473
754	9309.491016
755	9304.924414
756	9294.994531
757	9282.125195
758	9268.150195
759	9253.349805
760	9240.342578
761	9227.249121
762	9213.823242
763	9199.207617
764	9182.944824
765	9166.092383
766	9149.099219
767	9133.050586
768	9116.28457
769	9098.511328
770	9078.788672
771	9058.564258
772	9037.992969
773	9017.363574
774	8994.14668
775	8970.215625
776	8946.719922
777	8918.977051
778	8891.347559
779	8864.498633
780	8834.428809
781	8807.081641
782	8780.833398
783	8750.416797
784	8722.515625
785	8694.862305
786	8665.421777
787	8635.379785
788	8605.420313
789	8575.7
790	8545.070605
791	8512.488184
792	8478.73584
793	8446.847656
794	8413.023047
795	8378.086035
796	8342.32207
797	8306.524121
798	8270.920898
799	8235.60625
800	8200.839941
801	8165.084668
802	8128.679004
803	8093.504395
804	8056.930078
805	8020.036377
806	7984.022363
807	7945.628613
808	7906.494482
809	7866.980518
810	7823.374756
811	7780.043359
812	7737.106299
813	7694.169287
814	7653.387451
815	7613.9021
816	7575.160742
817	7538.458691
818	7502.314697
819	7466.300684
820	7428.360107
821	7390.997314
822	7353.944043
823	7313.244727
824	7272.409033
825	7231.099854
826	7188.372754
827	7148.518164
828	7108.269238
829	7065.961572
830	7026.385449
831	6987.993701
832	6950.473389
833	6911.522363
834	6872.788867
835	6834.277588
836	6796.16582
837	6757.299951
838	6718.494287
839	6680.242578
840	6640.209033
841	6600.603516
842	6561.551025
843	6520.571973
844	6479.679639
845	6439.212646
846	6400.331445
847	6362.194385
848	6324.60835
849	6287.663916
850	6248.933545
851	6210.561572
852	6172.90498
853	6136.401367
854	6099.730127
855	6063.232275
856	6028.127246
857	5992.349609
858	5956.357227
859	5920.413281
860	5884.1
861	5847.25625
862	5809.830811
863	5772.907764
864	5737.079639
865	5701.929297
866	5666.125
867	5630.169873
868	5593.588135
869	5555.616064
870	5519.628564
871	5483.904248
872	5448.1
873	5413.204932
874	5378.131299
875	5343.172656
876	5309.886035
877	5275.375586
878	5240.189551
879	5204.594971
880	5167.884668
881	5131.735693
882	5096.700684
883	5061.048926
884	5025.88457
885	4991.028613
886	4955.434473
887	4919.866699
888	4884.825879
889	4851.329492
890	4816.91543
891	4783.14541
892	4750.697852
893	4715.430811
894	4680.602295
895	4646.364355
896	4613.007715
897	4579.41665
898	4545.441895
899	4510.616748
900	4477.61875
901	4444.395898
902	4410.060156
903	4376.973486
904	4343.502832
905	4309.760156
906	4278.011914
907	4245.581738
908	4212.615332
909	4179.048926
910	4146.034961
911	4113.369189
912	4081.061548
913	4050.512524
914	4018.346826
915	3984.51189
916	3953.043335
917	3920.517456
918	3887.944067
919	3857.664307
920	3823.615381
921	3789.795825
922	3758.607031
923	3726.399951
924	3693.924463
925	3661.340967
926	3630.160425
927	3598.249585
928	3566.073462
929	3534.814722
930	3502.139868
931	3469.462939
932	3437.784595
933	3404.799316
934	3372.295801
935	3340.539111
936	3308.51123
937	3276.525195
938	3244.852808
939	3214.575
940	3182.866528
941	3150.817456
942	3119.209106
943	3087.174756
944	3055.815405
945	3025.392285
946	2994.623096
947	2965.881812
948	2938.199951
949	2908.200098
950	2879.156616
951	2850.70415
952	2822.7875
953	2794.942676
954	2767.580371
955	2740.867139
956	2713.669238
957	2686.427295
958	2659.118164
959	2631.565747
960	2603.425952
961	2575.638428
962	2549.484619
963	2520.217432
964	2491.723633
965	2465.195801
966	2438.14895
967	2410.179736
968	2381.230835
969	2350.601343
970	2322.730103
971	2295.317456
972	2265.387427
973	2235.170654
974	2206.363672
975	2179.860132
976	2152.886768
977	2127.244482
978	2102.916772
979	2079.769971
980	2053.623096
981	2026.236365
982	1999.872729
983	1973.285291
984	1946.641943
985	1919.998608
986	1893.158057
987	1866.019568
988	1838.696509
989	1812.402759
990	1786.836353
991	1761.318054
992	1734.581946
993	1708.845471
994	1683.660168
995	1658.974841
996	1633.83916
997	1608.321655
998	1582.552466
999	1558.426563
1000	1533.067163
1001	393.6576141
1002	398.7859467
1003	403.6601318
1004	408.6277161
1005	413.978833
1006	419.5690887
1007	425.3211365
1008	430.8383331
1009	436.213443
1010	441.9239258
1011	448.08638
1012	454.144696
1013	459.9341309
1014	465.7045837
1015	471.4863373
1016	477.3470642
1017	483.3214996
1018	489.5774719
1019	495.8798889
1020	502.5896973
1021	509.4813965
1022	516.3057251
1023	523.0081543
1024	529.9550476
1025	537.0588745
1026	544.162738
1027	551.220459
1028	558.3551453
1029	565.7211304
1030	573.1241272
1031	580.6801941
1032	588.291333
1033	596.1213623
1034	603.9893677
1035	612.276178
1036	620.6340271
1037	628.9166504
1038	637.1849304
1039	645.6758667
1040	654.0595337
1041	662.4096619
1042	670.916449
1043	679.7468567
1044	688.9157715
1045	697.8585327
1046	706.2486572
1047	714.6939758
1048	723.3934448
1049	732.089917
1050	740.6726868
1051	749.2748108
1052	758.5659912
1053	767.9067993
1054	776.8409485
1055	785.7117737
1056	794.7779297
1057	803.8861267
1058	812.9887817
1059	822.0500854
1060	830.884314
1061	839.6203796
1062	848.4067078
1063	857.1893738
1064	865.8936646
1065	874.4668213
1066	883.0189331
1067	891.4029602
1068	899.8122437
1069	908.6008728
1070	917.3895142
1071	925.7213257
1072	934.0400269
1073	942.2608887
1074	950.4624146
1075	958.6996033
1076	966.9497498
1077	975.160144
1078	983.342218
1079	991.447876
1080	999.4885742
1081	1007.701001
1082	1016.14765
1083	1024.638245
1084	1033.274963
1085	1041.788513
1086	1049.832971
1087	1057.958936
1088	1066.718982
1089	1075.478723
1090	1083.942542
1091	1092.418176
1092	1101.24054
1093	1110.143884
1094	1119.350598
1095	1128.636353
1096	1138.122485
1097	1147.787988
1098	1157.711743
1099	1167.877393
1100	1178.210925
1101	1188.782178
1102	1199.517737
1103	1210.871899
1104	1222.459583
1105	1234.696301
1106	1246.902649
1107	1259.83114
1108	1272.918176
1109	1287.091602
1110	1301.278662
1111	1315.748523
1112	1330.340576
1113	1345.78114
1114	1361.632446
1115	1378.357654
1116	1395.448938
1117	1412.946631
1118	1430.87207
1119	1449.235083
1120	1468.256592
1121	1487.573254
1122	1507.619922
1123	1528.051099
1124	1549.789722
1125	1571.702686
1126	1594.642639
1127	1617.872729
1128	1642.782874
1129	1667.878577
1130	1693.308789
1131	1718.913245
1132	1746.820715
1133	1775.283704
1134	1804.037451
1135	1833.099731
1136	1864.482153
1137	1897.169702
1138	1930.233105
1139	1964.067847
1140	1998.949548
1141	2035.5052
1142	2073.191626
1143	2113.683691
1144	2154.802905
1145	2198.038867
1146	2241.807666
1147	2287.476343
1148	2333.757568
1149	2382.963745
1150	2433.099634
1151	2485.173633
1152	2537.661353
1153	2593.159326
1154	2649.665308
1155	2707.789502
1156	2766.833789
1157	2827.835449
1158	2890.420776
1159	2953.889087
1160	3017.754688
1161	3082.696069
1162	3149.438062
1163	3216.240967
1164	3283.567944
1165	3351.457886
1166	3420.690332
1167	3489.968433
1168	3558.733325
1169	3627.823853
1170	3698.27417
1171	3768.634082
1172	3837.718823
1173	3906.550366
1174	3975.432568
1175	4044.438745
1176	4112.680908
1177	4180.342578
1178	4248.073389
1179	4315.631885
1180	4381.819775
1181	4447.12207
1182	4511.794434
1183	4575.820361
1184	4639.183887
1185	4700.881982
1186	4762.030859
1187	4822.263379
1188	4881.970801
1189	4940.332275
1190	4998.193457
1191	5055.067041
1192	5110.984473
1193	5164.963428
1194	5218.630371
1195	5271.792627
1196	5323.942187
1197	5373.837061
1198	5423.042432
1199	5471.429785
1200	5519.406836
1201	5565.243359
1202	5609.685742
1203	5653.614014
1204	5696.701953
1205	5738.608936
1206	5779.644678
1207	5819.86001
1208	5859.322803
1209	5897.900098
1210	5934.790771
1211	5971.747119
1212	6008.671582
1213	6044.769092
1214	6079.456982
1215	6113.788477
1216	6147.727588
1217	6181.302197
1218	6214.291455
1219	6247.104395
1220	6279.864893
1221	6312.304346
1222	6343.568604
1223	6374.642969
1224	6406.761035
1225	6439.060938
1226	6470.289014
1227	6501.089258
1228	6532.134717
1229	6563.230859
1230	6593.865186
1231	6624.247461
1232	6655.303613
1233	6687.093115
1234	6718.653223
1235	6750.08877
1236	6781.93877
1237	6814.33125
1238	6846.692139
1239	6878.804639
1240	6911.151025
1241	6944.510352
1242	6978.338574
1243	7012.130225
1244	7046.163916
1245	7081.204785
1246	7116.660107
1247	7152.220215
1248	7188.360986
1249	7225.994238
1250	7264.476318
1251	7303.710352
1252	7343.692969
1253	7384.53584
1254	7425.602295
1255	7467.042822
1256	7509.468457
1257	7553.331494
1258	7597.74541
1259	7641.794141
1260	7686.422412
1261	7732.256104
1262	7778.448975
1263	7824.222266
1264	7869.786816
1265	7915.699512
1266	7962.413818
1267	8009.044727
1268	8055.142871
1269	8101.481152
1270	8147.920264
1271	8193.603809
1272	8238.866406
1273	8284.635937
1274	8330.799805
1275	8376.821484
1276	8422.206738
1277	8467.228711
1278	8512.80332
1279	8558.64082
1280	8604.239648
1281	8649.201855
1282	8693.329687
1283	8737.449121
1284	8780.757617
1285	8822.725
1286	8864.33584
1287	8905.176465
1288	8944.302734
1289	8982.018848
1290	9018.822656
1291	9054.76084
1292	9089.568457
1293	9121.925195
1294	9152.758887
1295	9182.252246
1296	9210.289453
1297	9236.520996
1298	9261.427832
1299	9284.964844
1300	9307.571484
1301	9329.250293
1302	9350.558398
1303	9371.541016
1304	9391.809863
1305	9411.337988
1306	9430.763086
1307	9450.240332
1308	9470.04082
1309	9490.545215
1310	9511.791016
1311	9534.058984
1312	9557.175293
1313	9581.370898
1314	9606.504004
1315	9633.360937
1316	9662.602441
1317	9694.575391
1318	9729.060742
1319	9766.781738
1320	9807.810156
1321	9851.910352
1322	9899.73125
1323	9950.878027
1324	10006.77822
1325	10066.23877
1326	10129.50918
1327	10196.90176
1328	10269.81006
1329	10346.52314
1330	10427.0248
1331	10511.02832
1332	10599.93232
1333	10692.49043
1334	10789.00342
1335	10889.20313
1336	10993.05361
1337	11098.57725
1338	11206.13281
1339	11316.05693
1340	11428.86455
1341	11543.40703
1342	11658.75127
1343	11774.76104
1344	11892.28701
1345	12009.44922
1346	12124.6168
1347	12238.91299
1348	12352.53623
1349	12465.89209
1350	12578.21807
1351	12688.51934
1352	12797.82549
1353	12905.90967
1354	13009.0248
1355	13110.39697
1356	13213.371
1357	13318.52803
1358	13425.88984
1359	13535.34639
1360	13647.62773
1361	13763.88838
1362	13883.70039
1363	14009.03486
1364	14141.88086
1365	14284.72158
1366	14432.3585
1367	14585.24473
1368	14742.55
1369	14902.92246
1370	15063.76123
1371	15224.329
1372	15383.04502
1373	15537.8832
1374	15686.09443
1375	15821.54229
1376	15948.74395
1377	16067.47314
1378	16179.68086
1379	16285.52422
1380	16388.67383
1381	16490.35703
1382	16593.42832
1383	16701.18359
1384	16813.60508
1385	16934.2877
1386	17059.52637
1387	17186.69492
1388	17315.2377
1389	17444.25547
1390	17572.59063
1391	17698.58379
1392	17821.31641
1393	17936.63027
1394	18046.77305
1395	18151.71797
1396	18252.96504
1397	18354.81113
1398	18458.6834
1399	18560.48223
1400	18660.35742
1401	18762.07656
1402	18865.29199
1403	18969.34082
1404	19074.10664
1405	19179.7252
1406	19287.51738
1407	19393.26465
1408	19495.50762
1409	19601.5168
1410	19710.6375
1411	19816.65293
1412	19921.23711
1413	20026.57598
1414	20131.68809
1415	20235.90234
1416	20338.2498
1417	20440.40566
1418	20541.6832
1419	20640.50098
1420	20736.84805
1421	20832.85879
1422	20927.7418
1423	21021.7748
1424	21114.68594
1425	21207.20254
1426	21299.16133
1427	21390.2252
1428	21479.99082
1429	21569.37871
1430	21658.91133
1431	21748.01465
1432	21834.84512
1433	21921.41484
1434	22009.61035
1435	22097.97246
1436	22185.21953
1437	22271.82773
1438	22358.46582
1439	22445.24473
1440	22530.62012
1441	22615.57656
1442	22701.35938
1443	22786.47617
1444	22869.46582
1445	22952.375
1446	23036.32598
1447	23120.42793
1448	23203.24688
1449	23285.54883
1450	23368.10117
1451	23450.17441
1452	23531.40234
1453	23612.60352
1454	23693.62793
1455	23774.49961
1456	23853.2834
1457	23930.99766
1458	24008.40352
1459	24084.87207
1460	24159.91348
1461	24234.85586
1462	24307.90234
1463	24380.13945
1464	24450.39023
1465	24518.91211
1466	24587.67695
1467	24656.63887
1468	24724.42578
1469	24792.19492
1470	24860.38789
1471	24928.94453
1472	24997.40273
1473	25065.48223
1474	25134.61465
1475	25204.39902
1476	25272.38984
1477	25339.14395
1478	25406.08398
1479	25473.60254
1480	25540.17637
1481	25605.15645
1482	25670.6877
1483	25736.33027
1484	25800.42188
1485	25863.87637
1486	25927.73184
1487	25991.84883
1488	26055.00195
1489	26116.92656
1490	26179.31562
1491	26241.82891
1492	26302.39238
1493	26361.09609
1494	26420.05801
1495	26479.30098
1496	26537.98809
1497	26595.83027
1498	26653.69746
1499	26711.18223
1500	26767.38672
1501	26822.52637
1502	26877.50293
1503	26931.98516
1504	26986.3709
1505	27040.0709
